Time,P1(bar),P2(bar),T,P1a,P2a,p1b,p2b,CEFNI,,,,
1,79,5,293,324.2862665,0.615733417,324.2862665,0.615733417,1,,,,
2,78.96759259,6,376.5989527,324.2862665,0.615733417,324.1532376,0.574860519,2.018892298,,,,
3,78.93518519,6,450.3389761,324.2862665,0.615733417,324.0202088,0.480730918,2.843120968,,,,
4,78.91087963,8,573.0784615,324.2862665,0.615733417,323.9204372,0.503693378,3.02053239,,,,
5,78.88657407,8,573.6117738,324.2862665,0.615733417,323.8206656,0.503225072,3.330653152,,,,
6,78.86226852,8,573.9469367,324.2862665,0.615733417,323.7208939,0.502931208,3.640088648,,,,
7,78.83796296,8,573.5882927,324.2862665,0.615733417,323.6211223,0.503245672,3.945111299,,,,
8,78.81018519,7,420.6083732,324.2862665,0.615733417,323.5070976,0.600496481,3.600518162,,,,
9,78.77777778,6,316.8267343,324.2862665,0.615733417,323.3740688,0.683313136,3.465897312,,,,
10,78.73888889,5,293.002945,324.2862665,0.615733417,323.2144342,0.615727229,4.248190846,,,,
11,78.7,5,376.5319456,324.2862665,0.615733417,323.0547996,0.479135684,5.975677634,,,,
12,78.66759259,6,450.8293725,324.2862665,0.615733417,322.9217708,0.480207996,6.391720033,,,,
13,78.63518519,6,573.6895389,324.2862665,0.615733417,322.788742,0.377367644,8.679996289,,,,
14,78.61087963,8,573.1208725,324.2862665,0.615733417,322.6889703,0.503656104,6.810591047,,,,
15,78.58657407,8,573.0539127,324.2862665,0.615733417,322.5891987,0.503714955,7.116806295,,,,
16,78.56226852,8,573.3629908,324.2862665,0.615733417,322.4894271,0.503443422,7.427821303,,,,
17,78.53796296,8,420.6155963,324.2862665,0.615733417,322.3896555,0.686269907,5.674347286,,,,
18,78.51018519,7,316.4253897,324.2862665,0.615733417,322.2756308,0.798209802,5.100002612,,,,
19,78.47777778,6,293.5075699,324.2862665,0.615733417,322.142602,0.737602337,5.798607922,,,,
20,78.43888889,5,376.7829281,324.2862665,0.615733417,321.9829674,0.478816522,9.449340528,,,,
21,78.4,5,450.3214451,324.2862665,0.615733417,321.8233328,0.400624694,11.91123276,,,,
22,78.36111111,5,573.3666474,324.2862665,0.615733417,321.6636982,0.314650132,15.95221831,,,,
23,78.3287037,6,573.7767686,324.2862665,0.615733417,321.5306694,0.377310274,13.84950965,,,,
24,78.2962963,6,573.5278827,324.2862665,0.615733417,321.3976405,0.37747401,14.38975086,,,,
25,78.27199074,8,573.6418204,324.2862665,0.615733417,321.2978689,0.503198713,11.10178308,,,,
26,78.24768519,8,420.9471575,324.2862665,0.615733417,321.1980973,0.685729363,8.372179004,,,,
27,78.22337963,8,316.6695176,324.2862665,0.615733417,321.0983257,0.911536507,6.467864901,,,,
28,78.19907407,8,293.0217236,324.2862665,0.615733417,320.9985541,0.98510043,6.141851941,,,,
29,78.1712963,7,376.7300917,324.2862665,0.615733417,320.8845294,0.670437147,9.288088101,,,,
30,78.13888889,6,450.5186422,324.2862665,0.615733417,320.7515005,0.480539204,13.38761524,,,,
31,78.1,5,573.9835257,324.2862665,0.615733417,320.5918659,0.314311968,21.25502135,,,,
32,78.06111111,5,573.8262419,324.2862665,0.615733417,320.4322314,0.314398119,22.03620432,,,,
33,78.02222222,5,573.092908,324.2862665,0.615733417,320.2725968,0.314800425,22.79404419,,,,
34,77.98981481,6,573.9945076,324.2862665,0.615733417,320.1395679,0.377167145,19.57161324,,,,
35,77.95740741,6,420.3976696,324.2862665,0.615733417,320.0065391,0.514969243,14.734791,,,,
36,77.93310185,8,316.3404234,324.2862665,0.615733417,319.9067675,0.912484794,8.485193641,,,,
37,77.9087963,8,293.265933,324.2862665,0.615733417,319.8069959,0.984280114,8.023382842,,,,
38,77.88449074,8,376.8608538,324.2862665,0.615733417,319.7072243,0.765948023,10.51233497,,,,
39,77.86018519,8,450.7242906,324.2862665,0.615733417,319.6074526,0.640426602,12.81419005,,,,
40,77.83240741,7,573.5230285,324.2862665,0.615733417,319.4934279,0.440390072,19.03604788,,,,
41,77.8,6,573.0704662,324.2862665,0.615733417,319.3603991,0.377775304,22.73701082,,,,
42,77.76111111,5,573.4700977,324.2862665,0.615733417,319.2007645,0.314593371,28.08995865,,,,
43,77.72222222,5,573.6935789,324.2862665,0.615733417,319.0411299,0.314470822,28.88773065,,,,
44,77.68333333,5,420.9537266,324.2862665,0.615733417,318.8814953,0.428574164,21.77401907,,,,
45,77.65092593,6,316.0119891,324.2862665,0.615733417,318.7484665,0.685074861,13.92253202,,,,
46,77.61851852,6,293.7974623,324.2862665,0.615733417,318.6154377,0.736874539,13.22365051,,,,
47,77.59421296,8,293,324.2862665,0.615733417,318.5156661,0.985173468,10.04779128,,,,
48,77.56990741,8,376.0055442,324.2862665,0.615733417,318.4158945,0.767690345,13.09572727,,,,
49,77.54560185,8,450.3039816,324.2862665,0.615733417,318.3161228,0.64102437,15.92468224,,,,
50,77.5212963,8,573.9878735,324.2862665,0.615733417,318.2163512,0.502895339,20.60618703,,,,
51,77.49351852,7,573.1395458,324.2862665,0.615733417,318.1023265,0.440684733,23.91617614,,,,
52,77.46111111,6,573.3800852,324.2862665,0.615733417,317.9692977,0.377571309,28.46002362,,,,
53,77.42222222,5,573.9302203,324.2862665,0.615733417,317.8096631,0.31434116,34.97194573,,,,
54,77.38333333,5,420.1663725,324.2862665,0.615733417,317.6500285,0.429377273,26.17873911,,,,
55,77.34444444,5,316.1802336,324.2862665,0.615733417,317.4903939,0.570591935,20.13345882,,,,
56,77.31203704,6,293.8665969,324.2862665,0.615733417,317.3573651,0.736701183,15.87371402,,,,
57,77.27962963,6,293,324.2862665,0.615733417,317.2243363,0.738880101,16.10596708,,,,
58,77.25532407,8,376.6676655,324.2862665,0.615733417,317.1245647,0.766340869,15.73062989,,,,
59,77.23101852,8,450.4210977,324.2862665,0.615733417,317.024793,0.640857694,19.05207773,,,,
60,77.20671296,8,573.6084349,324.2862665,0.615733417,316.9250214,0.503228001,24.57000919,,,,
61,77.18240741,8,573.3017577,324.2862665,0.615733417,316.8252498,0.503497193,24.86401667,,,,
62,77.15462963,7,573.0695085,324.2862665,0.615733417,316.7112251,0.440738591,28.80551231,,,,
63,77.12222222,6,573.0231935,324.2862665,0.615733417,316.5781963,0.377806469,34.14948298,,,,
64,77.08333333,5,420.9240547,324.2862665,0.615733417,316.4185617,0.428604375,30.67940967,,,,
65,77.04444444,5,316.1502737,324.2862665,0.615733417,316.2589271,0.570646007,23.47648569,,,,
66,77.00555556,5,293.9930548,324.2862665,0.615733417,316.0992925,0.613653582,22.23436287,,,,
67,76.97314815,6,293,324.2862665,0.615733417,315.9662637,0.738880101,18.74511317,,,,
68,76.94074074,6,376.6433722,324.2862665,0.615733417,315.8332348,0.574792723,24.45505175,,,,
69,76.91643519,8,450.3691419,324.2862665,0.615733417,315.7334632,0.640931625,22.17277356,,,,
70,76.89212963,8,573.4855985,324.2862665,0.615733417,315.6336916,0.503335789,28.54133984,,,,
71,76.86782407,8,573.8369818,324.2862665,0.615733417,315.53392,0.503027576,28.86625803,,,,
72,76.84351852,8,573.6040497,324.2862665,0.615733417,315.4341484,0.503231848,29.16184632,,,,
73,76.81574074,7,573.4393189,324.2862665,0.615733417,315.3201237,0.440454359,33.71951668,,,,
74,76.78333333,6,420.3758567,324.2862665,0.615733417,315.1870948,0.514995964,29.23926371,,,,
75,76.74444444,5,316.8869233,324.2862665,0.615733417,315.0274603,0.569319458,26.88391588,,,,
76,76.70555556,5,293.3576906,324.2862665,0.615733417,314.8678257,0.614982655,25.29009543,,,,
77,76.66666667,5,293,324.2862665,0.615733417,314.7081911,0.615733417,25.66111112,,,,
78,76.63425926,6,376.7230865,324.2862665,0.615733417,314.5751622,0.574671097,27.85349461,,,,
79,76.60185185,6,450.9856374,324.2862665,0.615733417,314.4421334,0.480041606,33.77372461,,,,
80,76.5775463,8,573.7764503,324.2862665,0.615733417,314.3423618,0.503080644,32.53442407,,,,
81,76.55324074,8,573.9581901,324.2862665,0.615733417,314.2425902,0.502921347,32.85222453,,,,
82,76.52893519,8,573.2855218,324.2862665,0.615733417,314.1428186,0.503511453,33.12085737,,,,
83,76.50462963,8,573.3511687,324.2862665,0.615733417,314.0430469,0.503453802,33.43182025,,,,
84,76.47685185,7,420.7735897,324.2862665,0.615733417,313.9290222,0.600260696,28.33454771,,,,
85,76.44444444,6,316.7911519,324.2862665,0.615733417,313.7959934,0.683389887,25.18958844,,,,
86,76.40555556,5,293.5763164,324.2862665,0.615733417,313.6363588,0.614524678,28.41504051,,,,
87,76.36666667,5,293,324.2862665,0.615733417,313.4767242,0.615733417,28.76111112,,,,
88,76.32777778,5,376.268304,324.2862665,0.615733417,313.3170896,0.479471402,37.45084851,,,,
89,76.29537037,6,450.779856,324.2862665,0.615733417,313.1840608,0.480260745,37.81863437,,,,
90,76.26296296,6,573.3968253,324.2862665,0.615733417,313.051032,0.377560286,48.65183354,,,,
91,76.23865741,8,573.7804953,324.2862665,0.615733417,312.9512604,0.503077097,36.82069073,,,,
92,76.21435185,8,573.5196803,324.2862665,0.615733417,312.8514888,0.503305878,37.11121417,,,,
93,76.1900463,8,573.7663625,324.2862665,0.615733417,312.7517171,0.503089489,37.43456908,,,,
94,76.16574074,8,420.078779,324.2862665,0.615733417,312.6519455,0.687146889,27.63249685,,,,
95,76.13796296,7,316.2679481,324.2862665,0.615733417,312.5379208,0.79860716,23.99718347,,,,
96,76.10555556,6,293.7920969,324.2862665,0.615733417,312.404892,0.736887996,26.28692191,,,,
97,76.06666667,5,293,324.2862665,0.615733417,312.2452574,0.615733417,31.86111112,,,,
98,76.02777778,5,376.306117,324.2862665,0.615733417,312.0856228,0.479423222,41.43600791,,,,
99,75.98888889,5,450.6116164,324.2862665,0.615733417,311.9259882,0.400366712,50.23598977,,,,
100,75.95648148,6,573.951584,324.2862665,0.615733417,311.7929594,0.377195352,53.86867215,,,,
101,75.92407407,6,573.5363191,324.2862665,0.615733417,311.6599306,0.377468457,54.37595385,,,,
102,75.89976852,8,573.9904871,324.2862665,0.615733417,311.560159,0.502893049,41.12177224,,,,
103,75.87546296,8,573.6942985,324.2862665,0.615733417,311.4603873,0.503152684,41.40790677,,,,
104,75.85115741,8,420.2735574,324.2862665,0.615733417,311.3606157,0.686828426,30.55951768,,,,
105,75.82685185,8,316.9663773,324.2862665,0.615733417,311.2608441,0.910682794,23.21751502,,,,
106,75.79907407,7,293.5586001,324.2862665,0.615733417,311.1468194,0.86038647,24.78017783,,,,
107,75.76666667,6,293,324.2862665,0.615733417,311.0137906,0.738880101,29.13425927,,,,
108,75.72777778,5,376.8576576,324.2862665,0.615733417,310.854156,0.478721575,45.4839706,,,,
109,75.69537037,6,450.9058913,324.2862665,0.615733417,310.7211272,0.480126505,45.78033601,,,,
110,75.66759259,7,573.2492815,324.2862665,0.615733417,310.6071024,0.440600374,50.28840717,,,,
111,75.63981481,7,573.4165822,324.2862665,0.615733417,310.4930777,0.440471824,50.70433134,,,,
112,75.61203704,7,573.0965488,324.2862665,0.615733417,310.379053,0.440717796,51.07705613,,,,
113,75.58773148,8,573.1441021,324.2862665,0.615733417,310.2792814,0.503635691,45.0031918,,,,
114,75.56342593,8,420.7557237,324.2862665,0.615733417,310.1795098,0.686041353,33.26309632,,,,
115,75.53912037,8,316.3788365,324.2862665,0.615733417,310.0797382,0.912374005,25.18101733,,,,
116,75.51481481,8,293.3147384,324.2862665,0.615733417,309.9799666,0.984116337,23.50245673,,,,
117,75.48703704,7,293,324.2862665,0.615733417,309.8659419,0.862026784,27.03615521,,,,
118,75.45462963,6,376.0782321,324.2862665,0.615733417,309.732913,0.575656475,40.84395054,,,,
119,75.41574074,5,450.8107382,324.2862665,0.615733417,309.5732784,0.400189871,59.37061362,,,,
120,75.38796296,7,573.0566576,324.2862665,0.615733417,309.4592537,0.440748475,54.30820045,,,,
121,75.36018519,7,573.8690598,324.2862665,0.615733417,309.345229,0.440124526,54.78675558,,,,
122,75.33240741,7,573.289065,324.2862665,0.615733417,309.2312043,0.440569798,55.13254244,,,,
123,75.30462963,7,573.9319612,324.2862665,0.615733417,309.1171796,0.440076289,55.59597733,,,,
124,75.27222222,6,420.9007489,324.2862665,0.615733417,308.9841508,0.514353729,47.96828468,,,,
125,75.23981481,6,316.8206894,324.2862665,0.615733417,308.851122,0.683326174,36.40847037,,,,
126,75.20092593,5,293.705729,324.2862665,0.615733417,308.6914874,0.614253906,40.90538803,,,,
127,75.16203704,5,293,324.2862665,0.615733417,308.5318528,0.615733417,41.20895061,,,,
128,75.12314815,5,376.4446282,324.2862665,0.615733417,308.3722182,0.479246821,53.46130739,,,,
129,75.09074074,6,450.7169747,324.2862665,0.615733417,308.2391894,0.480327748,53.77027743,,,,
130,75.06296296,7,573.0514016,324.2862665,0.615733417,308.1251647,0.440752517,58.99931039,,,,
131,75.03518519,7,573.5787429,324.2862665,0.615733417,308.01114,0.440347295,59.45496471,,,,
132,75.00740741,7,573.6882993,324.2862665,0.615733417,307.8971152,0.440263202,59.86775871,,,,
133,74.97962963,7,573.7491731,324.2862665,0.615733417,307.7830905,0.440216491,60.27559166,,,,
134,74.95185185,7,420.3501233,324.2862665,0.615733417,307.6690658,0.600865407,44.45429452,,,,
135,74.91296296,5,316.568434,324.2862665,0.615733417,307.5094312,0.569892231,47.30452511,,,,
136,74.88055556,6,293.0072959,324.2862665,0.615733417,307.3764024,0.738861703,36.76557597,,,,
137,74.84814815,6,293,324.2862665,0.615733417,307.2433736,0.738880101,37.04372427,,,,
138,74.82384259,8,376.6865779,324.2862665,0.615733417,307.143602,0.766302393,35.91991489,,,,
139,74.79953704,8,450.6662609,324.2862665,0.615733417,307.0438304,0.640509066,43.21587967,,,,
140,74.77523148,8,573.7800688,324.2862665,0.615733417,306.9440587,0.503077471,55.32907027,,,,
141,74.75092593,8,573.5871264,324.2862665,0.615733417,306.8442871,0.503246696,55.61776163,,,,
142,74.72314815,7,573.256032,324.2862665,0.615733417,306.7302624,0.440595186,63.92760063,,,,
143,74.69537037,7,573.9465676,324.2862665,0.615733417,306.6162377,0.44006509,64.40622538,,,,
144,74.65648148,5,420.9148098,324.2862665,0.615733417,306.4566031,0.428613789,66.70425856,,,,
145,74.61759259,5,316.3143053,324.2862665,0.615733417,306.2969685,0.570350086,50.56157486,,,,
146,74.5787037,5,293.101536,324.2862665,0.615733417,306.1373339,0.615520116,47.25309777,,,,
147,74.53981481,5,293,324.2862665,0.615733417,305.9776993,0.615733417,47.63858025,,,,
148,74.50740741,6,376.0827714,324.2862665,0.615733417,305.8446705,0.575649527,51.31396639,,,,
149,74.475,6,450.0258153,324.2862665,0.615733417,305.7116417,0.481065446,61.83161859,,,,
150,74.45069444,8,573.0105508,324.2862665,0.615733417,305.6118701,0.503753073,59.3538834,,,,
151,74.42638889,8,573.3363771,324.2862665,0.615733417,305.5120985,0.503466791,59.69479559,,,,
152,74.40208333,8,573.7846763,324.2862665,0.615733417,305.4123268,0.503073431,60.04887418,,,,
153,74.37777778,8,573.9788853,324.2862665,0.615733417,305.3125552,0.502903214,60.37670544,,,,
154,74.35,7,420.976103,324.2862665,0.615733417,305.1985305,0.599971937,50.90301003,,,,
155,74.31759259,6,316.7947273,324.2862665,0.615733417,305.0655017,0.683382174,44.99176791,,,,
156,74.2787037,5,293.9456493,324.2862665,0.615733417,304.9058671,0.613752548,50.49918877,,,,
157,74.23981481,5,293,324.2862665,0.615733417,304.7462325,0.615733417,50.73858025,,,,
158,74.20740741,6,376.8168681,324.2862665,0.615733417,304.6132037,0.574528074,54.73646198,,,,
159,74.175,6,450.553863,324.2862665,0.615733417,304.4801749,0.480501639,65.87663018,,,,
160,74.15069444,8,573.109055,324.2862665,0.615733417,304.3804032,0.50366649,63.15384368,,,,
161,74.12638889,8,573.5936686,324.2862665,0.615733417,304.2806316,0.503240956,63.51454589,,,,
162,74.10208333,8,573.0535944,324.2862665,0.615733417,304.18086,0.503715235,63.76175376,,,,
163,74.07777778,8,573.5358157,324.2862665,0.615733417,304.0810884,0.503291718,64.12267805,,,,
164,74.05,7,420.3576605,324.2862665,0.615733417,303.9670637,0.600854633,54.00499441,,,,
165,74.01759259,6,316.228917,324.2862665,0.615733417,303.8340349,0.684604911,47.6995494,,,,
166,73.9787037,5,293.4458262,324.2862665,0.615733417,303.6744003,0.614797946,53.51803725,,,,
167,73.93981481,5,293,324.2862665,0.615733417,303.5147657,0.615733417,53.83858025,,,,
168,73.90740741,6,376.9252576,324.2862665,0.615733417,303.3817369,0.574362862,58.07549531,,,,
169,73.87962963,7,450.1128154,324.2862665,0.615733417,303.2677121,0.56113454,59.75954708,,,,
170,73.85532407,8,573.4065618,324.2862665,0.615733417,303.1679405,0.503405167,66.91983752,,,,
171,73.83101852,8,573.2219922,324.2862665,0.615733417,303.0681689,0.503567257,67.20539819,,,,
172,73.80671296,8,573.1113567,324.2862665,0.615733417,302.9683973,0.503664467,67.49946884,,,,
173,73.77893519,7,573.5129891,324.2862665,0.615733417,302.8543726,0.440397781,77.59762598,,,,
174,73.7400463,5,420.8641115,324.2862665,0.615733417,302.694738,0.42866542,80.29865315,,,,
175,71,5,316.7865593,324.2862665,0.615733417,291.4471509,0.569499829,95.05361115,,,,
176,71,5,293.5776512,324.2862665,0.615733417,291.4471509,0.614521884,78.38270031,,,,
177,71,5,293,324.2862665,0.615733417,291.4471509,0.615733417,83.21666666,,,,
178,71,5,293,324.2862665,0.615733417,291.4471509,0.615733417,71.21666666,,9.241620492,,84.11049635
179,71,5,293,324.2862665,0.615733417,291.4471509,0.615733417,82.45166667,,,,
180,71,5,293,324.2862665,0.615733417,291.4471509,0.615733417,94.34166667,,,,